PARAMETERS	16	8.0	0.0	10	0	-11.726515308873
#OMEGA	VALUE
-3.0	0.0004183623111916335	0.030334491104592076
-2.9924962481240622	0.00041981845326910516	0.03006983084243975
-2.984992496248124	0.00042128257506057754	0.02942530697887913
-2.9774887443721862	0.0004227547366972839	0.028594568762700168
-2.969984992496248	0.0004242349989020955	0.027783889267126716
-2.9624812406203103	0.00042572342297508836	0.027154355276483688
-2.954977488744372	0.00042722007081752444	0.026782417927523783
-2.9474737368684343	0.000428725004924857	0.026644820637191535
-2.939969984992496	0.0004302382884081579	0.02663013825160243
-2.9324662331165583	0.0004317599849829046	0.02658223346111055
-2.9249624812406205	0.0004332901589991778	0.026372742020796314
-2.9174587293646823	0.0004348288754272289	0.02597045785749663
-2.9099549774887445	0.0004363761998807947	0.025460020351858237
-2.9024512256128063	0.000437932198612101	0.024998615865754137
-2.8949474737368686	0.0004394969385352887	0.024750752455723113
-2.8874437218609303	0.00044107048721708786	0.0248445390183325
-2.8799399699849926	0.0004426529128956913	0.02535793572358691
-2.8724362181090544	0.0004442442844885264	0.026318510691556773
-2.8649324662331166	0.0004458446715955855	0.027699673834615357
-2.8574287143571784	0.000447454144508308	0.029407475400682115
-2.8499249624812406	0.00044907277422512326	0.03126531694047607
-2.842421210605303	0.0004507006324522278	0.03301491688413771
-2.8349174587293646	0.00045233779161257814	0.034352612072095945
-2.827413706853427	0.00045398432485999063	0.035004646668509554
-2.8199099549774886	0.00045564030608435946	0.0348198582236684
-2.812406203101551	0.0004573058099195393	0.033833659467299104
-2.8049024512256127	0.0004589809117596655	0.03225395962512512
-2.797398699349675	0.00046066568775959826	0.03036616207572762
-2.7898949474737367	0.000462360214846691	0.02841843573098224
-2.782391195597799	0.0004640645707357782	0.026555171323572213
-2.7748874437218607	0.00046577883393328356	0.024816908472062083
-2.767383691845923	0.0004675030837485439	0.023181630456536206
-2.759879939969985	0.0004692374003064659	0.021613855398877058
-2.752376188094047	0.00047098186455118984	0.020099418194523988
-2.744872436218109	0.00047273655826707284	0.018655915804717926
-2.737368684342171	0.0004745015640795769	0.017320438595101573
-2.729864932466233	0.0004762769654692578	0.016128824049213675
-2.722361180590295	0.0004780628467786485	0.015102080557778286
-2.714857428714357	0.0004798592932402368	0.014244434585702237
-2.7073536768384194	0.00048166639096058894	0.013548196724683437
-2.699849924962481	0.00048348422695454474	0.012999795382014345
-2.6923461730865434	0.0004853128891441072	0.012584282613120057
-2.6848424212106052	0.00048715246637276444	0.0122879490613792
-2.6773386693346675	0.0004890030484258068	0.012099565811326762
-2.6698349174587293	0.0004908647260311039	0.012010839890786107
-2.6623311655827915	0.0004927375908726495	0.012016494887758244
-2.6548274137068533	0.0004946217356068816	0.012114208524135583
-2.6473236618309155	0.0004965172538793361	0.012304507574637524
-2.6398199099549773	0.0004984242403268668	0.012590622796912143
-2.6323161580790395	0.000500342790598407	0.012978211762312286
-2.6248124062031017	0.0005022730013674037	0.013474733685724827
-2.6173086543271635	0.0005042149703392562	0.01408808619163171
-2.6098049024512258	0.0005061687962732986	0.014823917591518687
-2.6023011505752875	0.0005081345789936798	0.015680990033180797
-2.5947973986993498	0.0005101124193986895	0.016644576466508854
-2.5872936468234116	0.0005121024194825186	0.017679841431204157
-2.579789894947474	0.0005141046823421425	0.018730299053564603
-2.5722861430715356	0.0005161193122029673	0.019727498053346504
-2.564782391195598	0.0005181464144178305	0.020612115909467543
-2.5572786393196596	0.000520186095495978	0.02135666112889878
-2.549774887443722	0.0005222384631166088	0.021978277772229604
-2.542271135567784	0.0005243036261368683	0.022537195005622457
-2.534767383691846	0.0005263816946123878	0.02312099712793214
-2.527263631815908	0.0005284727798182676	0.02381962521793879
-2.51975987993997	0.0005305769942567373	0.024702520389813132
-2.512256128064032	0.0005326944516813592	0.02580730877835935
-2.504752376188094	0.0005348252671095732	0.027141293269362654
-2.497248624312156	0.0005369695568381294	0.028692883575580752
-2.4897448724362183	0.0005391274384689559	0.030449331381034894
-2.48224112056028	0.000541299030918152	0.03241611438644365
-2.474737368684342	0.0005434844544401907	0.03463365385179917
-2.467233616808404	0.0005456838306366896	0.03718731806487541
-2.4597298649324664	0.0005478972824932704	0.040205396022336304
-2.452226113056528	0.0005501249343778936	0.04384423888626787
-2.4447223611805904	0.0005523669120756081	0.04826810055481501
-2.437218609304652	0.0005546233428036507	0.05362966296293836
-2.4297148574287144	0.000556894355222104	0.060046337594695354
-2.422211105552776	0.0005591800794703117	0.06755982789521431
-2.4147073536768384	0.0005614806471765377	0.0760696897587958
-2.4072036018009006	0.0005637961914807255	0.08525063598899696
-2.3996998499249624	0.0005661268470579239	0.0945023172612297
-2.3921960980490242	0.0005684727501429343	0.10301837750239862
-2.3846923461730865	0.0005708340385417454	0.11002474204133994
-2.3771885942971487	0.0005732108516665058	0.11507059344079129
-2.3696848424212105	0.0005756033305509556	0.11811047221615534
-2.3621810905452727	0.0005780116178719652	0.11926989716994552
-2.3546773386693345	0.0005804358579817315	0.11854950751844595
-2.3471735867933967	0.0005828761969246532	0.11581931910128851
-2.3396698349174585	0.000585332782461867	0.11112227968848554
-2.3321660830415207	0.0005878057641039991	0.10493957434999202
-2.324662331165583	0.0005902952931169381	0.09812198519677984
-2.3171585792896447	0.0005928015225812322	0.09157368077435502
-2.309654827413707	0.0005953246073752139	0.0859709759701055
-2.3021510755377688	0.0005978647042427232	0.08165267544471844
-2.294647323661831	0.0006004219717914427	0.07863211500531053
-2.287143571785893	0.0006029965705369733	0.07664661313245003
-2.279639819909955	0.0006055886629187102	0.07522282433959582
-2.2721360680340172	0.000608198413339256	0.07379334447169483
-2.264632316158079	0.0006108259881850708	0.07188440548518282
-2.257128564282141	0.0006134715558603343	0.06930390012481402
-2.249624812406203	0.0006161352868163661	0.06620180641795703
-2.2421210605302653	0.0006188173535832675	0.0629603930643221
-2.234617308654327	0.0006215179308004526	0.06001098557426754
-2.2271135567783893	0.0006242371952389636	0.05769915128245684
-2.219609804902451	0.0006269753258508759	0.05623809364280363
-2.2121060530265133	0.0006297325037962764	0.05571893044115184
-2.204602301150575	0.0006325089124609162	0.0561347024158404
-2.1970985492746373	0.0006353047375163845	0.05739533327543045
-2.1895947973986996	0.0006381201669335423	0.0593296167092221
-2.1820910455227613	0.0006409553910299293	0.06167409818564351
-2.174587293646823	0.0006438106024982959	0.06404831050024873
-2.1670835417708854	0.0006466859964496807	0.06594130134218579
-2.1595797898949476	0.0006495817704444962	0.06677989832168829
-2.1520760380190094	0.0006524981245346062	0.06612537425105935
-2.1445722861430716	0.0006554352613021841	0.06390102506312201
-2.1370685342671334	0.000658393385892686	0.060451581611517535
-2.1295647823911956	0.0006613727060609254	0.05636936623580702
-2.1220610305152574	0.0006643734322173689	0.05224153101272333
-2.1145572786393196	0.0006673957774541162	0.04849355266301858
-2.107053526763382	0.0006704399575998554	0.04536451949802178
-2.0995497748874437	0.0006735061912581664	0.04295423216510408
-2.092046023011506	0.0006765946998504857	0.04128183982532163
-2.0845422711355677	0.0006797057076698421	0.040328589780747714
-2.07703851925963	0.0006828394419097217	0.04006007746604656
-2.0695347673836917	0.0006859961327286834	0.04043163288787721
-2.062031015507754	0.0006891760132842206	0.04138218254649395
-2.054527263631816	0.0006923793197857186	0.042822939017848616
-2.047023511755878	0.0006956062915436378	0.044627683594931966
-2.0395197598799397	0.0006988571710260238	0.04662712305274008
-2.032016008004002	0.0007021322038925915	0.04860390349312016
-2.024512256128064	0.0007054316390675552	0.05029536696662862
-2.017008504252126	0.0007087557287804858	0.05143615628734044
-2.009504752376188	0.0007121047286190452	0.05185847235972796
-2.00200100050025	0.0007154788975863857	0.051593517372269804
-1.9944972486243122	0.0007188784981708718	0.05088156112772646
-1.9869934967483742	0.0007223037963738355	0.05007652714833888
-1.9794897448724362	0.0007257550618008368	0.049526270009708995
-1.9719859929964982	0.0007292325676955258	0.049505850402273954
-1.9644822411205602	0.0007327365910158035	0.05021380008777432
-1.9569784892446223	0.0007362674124948843	0.05179858246701863
-1.9494747373686843	0.0007398253166889246	0.05438458309618066
-1.9419709854927463	0.0007434105920656187	0.05808459039423264
-1.9344672336168083	0.0007470235310509388	0.06299439141818752
-1.9269634817408705	0.0007506644301007448	0.06916321377181822
-1.9194597298649325	0.0007543335897833847	0.07653021795992732
-1.9119559779889945	0.0007580313148237705	0.08482166697171722
-1.9044522261130565	0.0007617579141949715	0.093427850266247
-1.8969484742371185	0.0007655137011868263	0.1013319282721935
-1.8894447223611806	0.0007692989934725558	0.10721755096364982
-1.8819409704852426	0.0007731141131939179	0.1098457317146565
-1.8744372186093046	0.0007769593870294855	0.10858523460091862
-1.8669334667333666	0.0007808351462900154	0.1037437413675869
-1.8594297148574286	0.0007847417269734036	0.09641508594241632
-1.8519259629814908	0.0007886794698719335	0.08796486506643586
-1.8444222111055528	0.0007926487206374455	0.07954683047800426
-1.8369184592296148	0.0007966498298818125	0.07189093825098558
-1.8294147073536768	0.0008006831532545444	0.06532429445310628
-1.8219109554777388	0.0008047490515312727	0.05988305374902869
-1.8144072036018009	0.0008088478907202212	0.05542315401159792
-1.8069034517258629	0.0008129800421304845	0.0517107497930922
-1.7993996998499249	0.0008171458824884903	0.048505920240031974
-1.7918959479739869	0.000821345794028927	0.04563910227313772
-1.7843921960980489	0.0008255801645898897	0.04305036546668384
-1.7768884442221111	0.0008298493877126889	0.04076935504546575
-1.7693846923461731	0.0008341538627569811	0.03885862590946776
-1.7618809404702351	0.0008384939949955816	0.037363804937885714
-1.7543771885942971	0.0008428701957265972	0.03629094386390952
-1.7468734367183592	0.0008472828823867795	0.03560586662293319
-1.7393696848424212	0.0008517324786553315	0.035246820331637285
-1.7318659329664832	0.0008562194145801394	0.03514742885646127
-1.7243621810905452	0.0008607441266911264	0.035263595786174995
-1.7168584292146072	0.0008653070581180478	0.03558731650073399
-1.7093546773386692	0.0008699086587132809	0.036133603789468505
-1.7018509254627314	0.0008745493851883834	0.03690957354366731
-1.6943471735867934	0.0008792297012297778	0.03789023800504154
-1.6868434217108554	0.00088395007763864	0.03901579881385342
-1.6793396698349174	0.0008887109924630154	0.04020496974795007
-1.6718359179589795	0.0008935129311284928	0.04137262488081417
-1.6643321660830415	0.0008983563865928579	0.04245390913715086
-1.6568284142071035	0.0009032418594828728	0.04344075819736937
-1.6493246623311655	0.0009081698582357189	0.04440926470534434
-1.6418209104552275	0.0009131408992646417	0.0455028767529394
-1.6343171585792895	0.0009181555070917335	0.04687456593198036
-1.6268134067033517	0.0009232142145296773	0.04863003647643449
-1.6193096548274137	0.0009283175628252982	0.05080667743020306
-1.6118059029514757	0.000933466101831204	0.05339711933700808
-1.6043021510755378	0.0009386603901736512	0.056409065206890485
-1.5967983991995998	0.0009439009954306243	0.059932125482568765
-1.5892946473236618	0.0009491884942964823	0.06416500574465722
-1.5817908954477238	0.0009545234727758034	0.06937904741322942
-1.5742871435717858	0.0009599065263641293	0.0758401528312177
-1.5667833916958478	0.00096533826023526	0.08371871243474982
-1.55927963981991	0.0009708192894373191	0.09298519723381904
-1.551775887943972	0.0009763502390959244	0.10327204624520148
-1.544272136068034	0.0009819317446129183	0.113717404821578
-1.536768384192096	0.0009875644518753113	0.12289690382880236
-1.529264632316158	0.0009932490174713315	0.12903840764638808
-1.52176088044022	0.0009989861089074736	0.13062984376253928
-1.514257128564282	0.00100477640484109	0.127154997074728
-1.506753376688344	0.001010620595292444	0.1193784625188552
-1.499249624812406	0.0010165193818982843	0.10891417744714305
-1.491745872936468	0.0010224734781473233	0.09747346526730183
-1.4842421210605303	0.0010284836096194905	0.0863428503232827
-1.4767383691845923	0.0010345505142551614	0.07625699996560087
-1.4692346173086543	0.0010406749425975192	0.06751247114284364
-1.4617308654327164	0.001046857658076994	0.06013767989821861
-1.4542271135567784	0.0010530994372670577	0.05402828348427513
-1.4467233616808404	0.0010594010701791001	0.04903103998044833
-1.4392196098049024	0.0010657633605407613	0.04498811896680788
-1.4317158579289644	0.0010721871260906957	0.04175738501659132
-1.4242121060530264	0.0010786731988872145	0.03921933395957944
-1.4167083541770884	0.0010852224256067133	0.037276135771922236
-1.4092046023011506	0.0010918356678815133	0.035845963661203406
-1.4017008504252126	0.0010985138025980667	0.03485661053168099
-1.3941970985492746	0.001105257722258779	0.03424359945364608
-1.3866933466733367	0.0011120683353063043	0.03395573569263555
-1.3791895947973987	0.0011189465664881437	0.03396312955390157
-1.3716858429214607	0.0011258933572056984	0.034254675445297034
-1.3641820910455227	0.0011329096659082882	0.03481565330395797
-1.3566783391695847	0.0011399964684412067	0.03559122438120099
-1.3491745872936467	0.001147154758469604	0.03645432485739497
-1.3416708354177087	0.0011543855478584053	0.037202684891251
-1.334167083541771	0.0011616898670980813	0.03760809273111809
-1.326663331665833	0.0011690687657218701	0.03751245075736398
-1.319159579789895	0.0011765233127368768	0.03691085377614289
-1.311655827913957	0.0011840545970924765	0.03594994543949326
-1.304152076038019	0.0011916637281130793	0.03484380077456528
-1.296648324162081	0.00119935183597919	0.033782024732189275
-1.289144572286143	0.0012071200722348907	0.03288882599884713
-1.281640820410205	0.0012149696102469187	0.032232166913857
-1.274137068534267	0.0012229016457557806	0.03185145593661132
-1.266633316658329	0.0012309173973732435	0.03177915832918754
-1.2591295647823912	0.0012390181071496587	0.03205009237397782
-1.2516258129064533	0.0012472050411074243	0.032702488016426945
-1.2441220610305153	0.0012554794898371746	0.03377548756745752
-1.2366183091545773	0.0012638427690686571	0.03530471547390179
-1.2291145572786393	0.001272296220287572	0.03731406519143543
-1.2216108054027013	0.0012808412113608503	0.03979943073436076
-1.2141070535267633	0.0012894791371701464	0.04270060217056437
-1.2066033016508253	0.0012982114202831907	0.045863987171461784
-1.1990995497748873	0.0013070395116242528	0.04901521511599394
-1.1915957978989493	0.0013159648911852395	0.05178268345238568
-1.1840920460230115	0.001324989068733462	0.05381038574697761
-1.1765882941470736	0.0013341135845674756	0.054930759989725964
-1.1690845422711356	0.0013433400102730308	0.05527636738100672
-1.1615807903951976	0.0013526699495096661	0.05523043565192076
-1.1540770385192596	0.0013621050388280542	0.055264035743745055
-1.1465732866433216	0.0013716469484980065	0.05579217006341597
-1.1390695347673836	0.001381297383375446	0.05711734899131826
-1.1315657828914456	0.0013910580837886988	0.05943824129071795
-1.1240620310155076	0.001400930826447766	0.0628733319175514
-1.1165582791395696	0.0014109174253910117	0.06746425525646693
-1.1090545272636319	0.0014210197329596053	0.0731416849387393
-1.1015507753876939	0.001431239640786619	0.07965092823912856
-1.0940470235117559	0.001441579080849853	0.08645836130871365
-1.0865432716358179	0.001452040026524215	0.09270532919483077
-1.0790395197598799	0.0014626244936732924	0.09731898731201705
-1.071535767883942	0.0014733345418107557	0.09934539983696866
-1.064032016008004	0.001484172275243334	0.09837927930888968
-1.056528264132066	0.0014951398442908381	0.09478157134546594
-1.049024512256128	0.0015062394465333862	0.0894907131272692
-1.0415207603801901	0.0015174733280950425	0.08358916832068886
-1.0340170085042522	0.0015288437849776404	0.07794841337272207
-1.0265132566283142	0.0015403531644264667	0.07310359260949151
-1.0190095047523762	0.0015520038663532354	0.0692979991656506
-1.0115057528764382	0.0015637983448011372	0.06658526535831588
-1.0040020010005002	0.0015757391094536333	0.06492491949589252
-0.9964982491245622	0.001587828727203422	0.06425460411527273
-0.9889944972486244	0.0016000698237698119	0.06453820407473176
-0.9814907453726862	0.001612465085356618	0.06578872130744906
-0.9739869934967484	0.0016250172603995416	0.06806937320267314
-0.9664832416208102	0.0016377291613413059	0.07148544976734883
-0.9589794897448725	0.0016506036664772905	0.07617907081767572
-0.9514757378689342	0.0016636437218805478	0.08232961567268648
-0.9439719859929965	0.0016768523433631222	0.09015481284902949
-0.9364682341170583	0.001690232618534293	0.09990404919515272
-0.9289644822411205	0.0017037877089187692	0.11183233418475569
-0.9214607303651827	0.0017175208521468255	0.12613766959120287
-0.9139569784892445	0.001731435364228262	0.14283816095103108
-0.9064532266133067	0.0017455346419031903	0.16156796166693077
-0.8989494747373685	0.0017598221650844126	0.18130623848063787
-0.8914457228614308	0.0017743014993765183	0.20015056234544837
-0.8839419709854925	0.0017889762986872393	0.21538941664821742
-0.8764382191095548	0.0018038503079578216	0.22415709209394774
-0.8689344672336166	0.0018189273659652283	0.22460260013603528
-0.8614307153576788	0.001834211408217823	0.21686321326749525
-0.853926963481741	0.0018497064700202515	0.20300501543608418
-0.8464232116058028	0.0018654166895676338	0.18595437924945724
-0.838919459729865	0.0018813463112359319	0.1682961737647839
-0.8314157078539268	0.0018974996889270512	0.1516467596541501
-0.823911955977989	0.0019138812896031254	0.1366426114737409
-0.8164082041020508	0.0019304956969072862	0.12325860424781165
-0.8089044522261131	0.0019473476149535207	0.11120366299013118
-0.8014007003501749	0.0019644418722442047	0.10022796819391444
-0.7938969484742371	0.0019817834257612743	0.09024515470756533
-0.7863931965982989	0.001999377365193289	0.0812867675243053
-0.7788894447223611	0.0020172289173508995	0.07340044706246218
-0.7713856928464233	0.002035343450739191	0.06658571258594104
-0.7638819409704851	0.002053726480335527	0.06078459510934542
-0.7563781890945473	0.002072383672517164	0.05590098789176601
-0.7488744372186091	0.0020913208502560954	0.051823655721562445
-0.7413706853426714	0.0021105439984439034	0.04844246407929531
-0.7338669334667332	0.0021300592695076004	0.045657307245637435
-0.7263631815907954	0.0021498729892078794	0.04338242539746773
-0.7188594297148572	0.002169991662691495	0.04154813741450669
-0.7113556778389194	0.002190421980821422	0.04010058704115049
-0.7038519259629816	0.002211170826725617	0.03900011290358729
-0.6963481740870434	0.002232245282662304	0.03821935968197199
-0.6888444222111056	0.0022536526371632615	0.03774091220752873
-0.6813406703351674	0.0022754003924733146	0.03755269566698394
-0.6738369184592297	0.0022974962723323333	0.03764080666754466
-0.6663331665832914	0.0023199482300777508	0.03798192575413828
-0.6588294147073537	0.002342764457101132	0.0385367858746235
-0.6513256628314155	0.0023659533916975395	0.03924253123109067
-0.6438219109554777	0.002389523728275944	0.0400017340189005
-0.6363181590795395	0.002413484427010615	0.04067666700470407
-0.6288144072036017	0.0024378447239059575	0.041110755418241496
-0.6213106553276639	0.0024626141413167657	0.04118754478102371
-0.6138069034517257	0.0024878024989672953	0.040894343291238866
-0.606303151575788	0.002513419925456395	0.04033429043976333
-0.5987993996998497	0.0025394768703047577	0.03967425732010954
-0.591295647823912	0.0025659841165499575	0.0390753727067098
-0.5837918959479738	0.00259295279395122	0.03865285391352602
